"Time (s)","X (m/s^2)","Y (m/s^2)","Z (m/s^2)"
1.084008347E-2,-1.209665835E0,-1.191867203E-1,-1.041608378E0
2.081108326E-2,-1.006837910E0,1.580005378E-1,-8.547255188E-1
3.078308329E-2,-5.444117376E-1,3.559720570E-1,-3.040300709E-1
4.075408331E-2,-2.118153870E-2,3.819991833E-1,7.010144985E-1
5.072608334E-2,3.306281778E-1,4.376190680E-1,1.605602733E0
6.069708336E-2,5.636976090E-1,6.409250021E-1,2.472522036E0
7.066908339E-2,7.992535686E-1,7.685258657E-1,3.009523305E0
8.064008341E-2,9.048934597E-1,7.270123887E-1,2.840057546E0
9.061108343E-2,6.742015064E-1,6.473125005E-1,2.199036650E0
1.005830835E-1,2.977370051E-1,4.605752367E-1,1.307995244E0
1.105540835E-1,-8.881657451E-2,1.959998381E-1,3.956945318E-1
1.205260833E-1,-3.790834692E-1,-2.681299210E-2,-3.043896747E-1
1.304970833E-1,-5.854773179E-1,-1.762841964E-1,-6.378470278E-1
1.404690833E-1,-5.669618171E-1,-3.197684366E-1,-6.786325264E-1
1.504400834E-1,-3.275972736E-1,-3.542529756E-1,-6.192856264E-1
1.604110834E-1,-6.931347907E-2,-2.470594794E-1,-6.137553298E-1
1.703830834E-1,1.362825170E-1,-6.373698950E-2,-6.289370406E-1
1.803538334E-1,2.909603745E-1,6.091570795E-2,-5.776411718E-1
1.903258334E-1,4.443167612E-1,4.826057911E-2,-4.616061008E-1
2.002968334E-1,4.983204755E-1,-2.925946712E-2,-3.307775742E-1
2.102688334E-1,4.754157624E-1,-7.731773257E-2,-2.291588134E-1
2.202398335E-1,3.702246451E-1,-1.112409389E-1,-2.808476150E-1
2.302108335E-1,2.696665692E-1,-1.716532016E-1,-3.469989198E-1
2.401828333E-1,2.203605080E-1,-2.776749158E-1,-3.705836642E-1
2.501538333E-1,1.222527078E-1,-2.984711230E-1,-3.808005041E-1
2.601258333E-1,1.031685653E-1,-3.054819345E-1,-3.727249146E-1
2.700968334E-1,1.965433368E-1,-2.716101837E-1,-3.801643270E-1
2.800688334E-1,3.169220120E-1,-1.971189952E-1,-3.550154525E-1
2.900398334E-1,4.614605051E-1,-1.725957727E-1,-2.971590078E-1
3.000108334E-1,5.853325993E-1,-1.664918643E-1,-3.348753029E-1
3.099828335E-1,5.999021065E-1,-1.273698986E-1,-3.305512869E-1
3.199538335E-1,6.150607207E-1,4.010488272E-2,-3.085903144E-1
3.299258333E-1,6.252486169E-1,1.476690924E-1,-3.057374579E-1
3.398968333E-1,7.119809514E-1,2.042239469E-1,-2.772837371E-1
3.498688333E-1,7.614036646E-1,2.168919396E-1,-2.899178159E-1
3.598398333E-1,6.553243554E-1,2.153096831E-1,-3.240304720E-1
3.698108334E-1,4.745614842E-1,2.295008755E-1,-2.445574558E-1
3.797828334E-1,4.149535060E-1,1.908630592E-1,-9.365192950E-2
3.897538334E-1,4.509726468E-1,1.518077517E-1,8.487467408E-2
3.997258334E-1,5.064940059E-1,1.793159777E-1,2.803020698E-1
4.096968335E-1,5.306380364E-1,2.531107628E-1,4.217450470E-1
4.196688335E-1,5.857562301E-1,3.233106798E-1,4.338142848E-1
4.296398333E-1,6.825655098E-1,3.358319074E-1,3.908694094E-1
4.396108333E-1,7.837378357E-1,2.696823567E-1,3.969943678E-1
4.495828333E-1,7.715598397E-1,1.618749028E-1,3.450325012E-1
4.595538334E-1,6.893433098E-1,1.166490287E-1,1.740037823E-1
4.695258334E-1,5.780102773E-1,1.966143805E-1,-1.818484068E-2
4.794968334E-1,5.394090061E-1,3.190644318E-1,-1.019824576E-1
4.894688334E-1,6.090633778E-1,4.121252078E-1,-1.528310144E-1
4.994398335E-1,7.295225984E-1,4.891961879E-1,-2.432582045E-1
5.094108335E-1,8.603941020E-1,4.845318639E-1,-2.885945910E-1
5.193828333E-1,9.549644829E-1,4.366472608E-1,-2.310661751E-1
5.293538333E-1,1.041893722E0,4.010499966E-1,-1.463622397E-1
5.393258333E-1,1.082164520E0,3.401307803E-1,-6.056195140E-2
5.492968333E-1,1.092431353E0,2.822597176E-1,3.107444286E-2
5.592688334E-1,1.173382984E0,1.683237970E-1,9.915065110E-2
5.692398334E-1,1.239078206E0,-2.702349186E-2,6.842528701E-2
5.792108334E-1,1.154084688E0,-2.680772960E-2,1.518463433E-2
5.891828334E-1,1.015090817E0,1.083980227E-1,-7.186988175E-2
5.991538335E-1,1.017487298E0,2.569716793E-1,-1.983632827E-1
6.091258335E-1,1.053057665E0,3.942268807E-1,-3.418159479E-1
6.190968333E-1,1.014995361E0,4.381119883E-1,-4.487223458E-1
6.290688333E-1,9.321862158E-1,4.458899546E-1,-4.634900737E-1
6.390398333E-1,8.909934586E-1,4.150447226E-1,-4.228624499E-1
6.490108334E-1,8.156482843E-1,3.102263653E-1,-3.844363028E-1
6.589828334E-1,7.525672062E-1,2.476102871E-1,-3.509785348E-1
6.689538334E-1,7.140140283E-1,9.563062727E-2,-3.321364671E-1
6.789258334E-1,7.183636259E-1,-6.266928792E-2,-3.608018571E-1
6.888968335E-1,7.056678589E-1,-1.334334612E-1,-5.278702569E-1
6.988688335E-1,6.021706800E-1,-1.397969860E-1,-7.622915643E-1
7.088398333E-1,3.968085726E-1,1.336615026E-2,-1.040523135E0
7.188108333E-1,1.964920275E-1,1.014258027E-1,-1.285017441E0
7.287828333E-1,7.621728659E-2,9.890916109E-2,-1.404007110E0
7.387538333E-1,5.910000131E-2,6.766047120E-2,-1.330091287E0
7.487258334E-1,1.292598648E-1,5.194783330E-2,-1.219648494E0
7.586968334E-1,1.106677656E-1,5.656011701E-2,-1.052212304E0
7.686688334E-1,-1.086544231E-2,8.457295775E-2,-8.612691379E-1
7.786398334E-1,-1.163347408E-1,1.248860013E-1,-7.399370742E-1
7.886108335E-1,-1.896374828E-1,7.043322086E-2,-7.886934972E-1
7.985828335E-1,-2.679455875E-1,5.815640688E-2,-9.110687041E-1
8.085538333E-1,-4.107388330E-1,1.552804130E-1,-1.046955657E0
8.185258333E-1,-5.624344642E-1,3.007854509E-1,-1.221774541E0
8.284968333E-1,-7.032514970E-1,3.556785268E-1,-1.311435161E0
8.384688334E-1,-8.590356477E-1,4.027468586E-1,-1.338720024E0
8.484398334E-1,-9.887824394E-1,4.113478205E-1,-1.260417035E0
8.584108334E-1,-1.130794058E0,3.592576075E-1,-1.069524155E0
8.683828334E-1,-1.322029731E0,3.382245880E-1,-7.623658240E-1
8.783538335E-1,-1.460583161E0,4.315087277E-1,-3.432678115E-1
8.883258335E-1,-1.586157964E0,4.805089796E-1,4.086794436E-2
8.982968333E-1,-1.588479016E0,4.606796095E-1,3.787995869E-1
9.082688333E-1,-1.482608599E0,4.200888231E-1,5.964697909E-1
9.182398333E-1,-1.449337796E0,4.469392374E-1,7.207166916E-1
9.282108333E-1,-1.368434112E0,5.004798523E-1,7.244594944E-1
9.381828334E-1,-1.261133612E0,6.557731292E-1,6.874735165E-1
9.481538334E-1,-1.173770801E0,8.684074187E-1,6.225846255E-1
9.581258334E-1,-1.105850860E0,1.040787137E0,4.543725103E-1
9.680968334E-1,-1.072976498E0,1.060275614E0,2.433424044E-1
9.780688335E-1,-1.109654473E0,9.166633201E-1,-2.361573458E-2
9.880398335E-1,-1.286083096E0,9.068753734E-1,-1.075197709E-1
9.980108333E-1,-1.534763716E0,9.166846624E-1,-8.428410530E-2
1.007982833E0,-1.587356936E0,8.140315291E-1,-3.856589556E-2
1.017953833E0,-1.449162233E0,6.392310637E-1,-8.038752079E-2
1.027925833E0,-1.298322342E0,5.538520673E-1,-2.053816956E-1
1.037896833E0,-1.133782132E0,6.936817977E-1,-3.783481818E-1
1.047868833E0,-9.674392252E-1,8.976376498E-1,-5.915774256E-1
1.057839833E0,-8.018307289E-1,1.058384625E0,-9.333080041E-1
1.067810833E0,-6.707355693E-1,1.201460145E0,-1.273944569E0
1.077782833E0,-6.002253114E-1,1.353451791E0,-1.441688907E0
1.087753833E0,-5.958784913E-1,1.263901683E0,-1.404683048E0
1.097725833E0,-6.166190037E-1,1.024833009E0,-1.258917224E0
1.107696833E0,-6.347592594E-1,9.242576838E-1,-1.042383134E0
1.117668833E0,-6.744010426E-1,8.897047323E-1,-7.809973919E-1
1.127639833E0,-6.712862308E-1,8.451811087E-1,-5.856384087E-1
1.137610833E0,-5.665657414E-1,7.281406090E-1,-5.400552696E-1
1.147582833E0,-4.961113974E-1,6.891335410E-1,-6.432872772E-1
1.157553833E0,-4.995760189E-1,8.373546106E-1,-7.393219471E-1
1.167525833E0,-4.685840218E-1,1.010490081E0,-8.047464430E-1
1.177496792E0,-4.588835641E-1,9.939623415E-1,-9.760154825E-1
1.187468792E0,-4.976396403E-1,9.540971947E-1,-1.194763328E0
1.197439792E0,-5.268275522E-1,1.071981448E0,-1.382750727E0
1.207411792E0,-5.660433657E-1,1.279076670E0,-1.381752607E0
1.217382792E0,-5.064640389E-1,1.315323852E0,-1.238228606E0
1.227353792E0,-4.794333111E-1,1.097111319E0,-1.163553815E0
1.237325792E0,-6.076081520E-1,8.593249387E-1,-1.212301467E0
1.247296792E0,-8.517954060E-1,8.622131708E-1,-1.209876627E0
1.257268792E0,-1.060019433E0,9.081398338E-1,-1.114612035E0
1.267239792E0,-1.141746551E0,9.475225854E-1,-8.758871770E-1
1.277211792E0,-1.074240812E0,9.401977783E-1,-6.281792414E-1
1.287182792E0,-9.502374476E-1,1.016376766E0,-5.129604417E-1
1.297153792E0,-8.656154463E-1,1.221222272E0,-4.864415646E-1
1.307125792E0,-8.424152295E-1,1.435372744E0,-3.904899251E-1
1.317096792E0,-7.911341250E-1,1.586779085E0,-2.826941657E-1
1.327068792E0,-6.670062882E-1,1.566571107E0,-3.098047811E-1
1.337039792E0,-5.164344553E-1,1.479229785E0,-3.629553866E-1
1.347011792E0,-3.902285546E-1,1.335157607E0,-5.014484435E-1
1.356982792E0,-3.044312264E-1,1.153113027E0,-8.282697916E-1
1.366953792E0,-4.616554732E-1,1.145998719E0,-1.011456626E0
1.376925792E0,-7.726712492E-1,1.299333179E0,-9.260790914E-1
1.386896792E0,-9.051714948E-1,1.475020667E0,-5.814459550E-1
1.396868792E0,-7.588993022E-1,1.571054167E0,-9.811569393E-2
1.406839792E0,-5.715988784E-1,1.639210483E0,3.263980097E-1
1.416811792E0,-3.539404419E-1,1.803426611E0,5.894613183E-1
1.426782792E0,-3.305517803E-3,1.917475675E0,7.729212177E-1
1.436753792E0,4.213346090E-1,1.874818482E0,1.029340920E0
1.446725792E0,7.906399622E-1,1.693472059E0,1.211887484E0
1.456696792E0,1.053893232E0,1.482539894E0,1.370331826E0
1.466668792E0,1.076344786E0,1.357222076E0,1.643817211E0
1.476639792E0,7.494401152E-1,1.175793207E0,2.009061198E0
1.486611792E0,2.477945292E-1,1.046511853E0,2.422526003E0
1.496582792E0,-1.078870125E-1,9.920204812E-1,2.879481229E0
1.506553792E0,-2.145098936E-1,9.244605821E-1,3.394270095E0
1.516525792E0,-1.516989569E-1,8.838700882E-1,3.924977421E0
1.526496792E0,-9.919147197E-2,8.857163465E-1,4.332743529E0
1.536468792E0,-1.081669845E-1,8.049867636E-1,4.564916582E0
1.546439792E0,-8.668263316E-2,6.452165660E-1,4.652453493E0
1.556411792E0,-1.706710886E-2,4.852838159E-1,4.549023265E0
1.566382792E0,9.254117779E-2,3.519059032E-1,4.310796590E0
1.576353792E0,3.029777183E-1,1.377680022E-1,3.901229539E0
1.586325792E0,5.613905901E-1,-1.056173792E-1,3.338809839E0
1.596296792E0,8.042412436E-1,-1.620280999E-1,2.645913615E0
1.606268792E0,1.019823919E0,-1.218553895E-1,1.910840839E0
1.616239792E0,1.215423807E0,-1.180675632E-1,1.260469660E0
1.626211792E0,1.516666145E0,-1.526295778E-1,6.418167025E-1
1.636182792E0,1.748878520E0,-2.265848690E-1,1.117823911E-1
1.646153792E0,1.884062638E0,-2.675010529E-1,-3.169676203E-1
1.656125792E0,2.041541750E0,-2.022624984E-1,-6.665475011E-1
1.666096792E0,2.171677236E0,-1.185546362E-1,-8.659176743E-1
1.676068792E0,2.227527355E0,-1.047707024E-1,-1.010446227E0
1.686039792E0,2.210902112E0,-1.212610200E-1,-1.135034021E0
1.696011792E0,2.272967675E0,-1.018389085E-1,-1.326673590E0
1.705982792E0,2.362912762E0,-1.403293750E-1,-1.568506828E0
1.715954792E0,2.417770755E0,-2.686520773E-1,-1.842431340E0
1.725925792E0,2.397787311E0,-4.317744836E-1,-2.211918651E0
1.735896792E0,2.256129741E0,-3.961681563E-1,-2.551902081E0
1.745868792E0,1.979188651E0,-3.218649557E-1,-2.808737521E0
1.755839792E0,1.657634474E0,-3.913605756E-1,-2.968841887E0
1.765811792E0,1.422707090E0,-6.049146321E-1,-3.158637829E0
1.775782792E0,1.289997514E0,-8.250000286E-1,-3.291332202E0
1.785754792E0,1.167657829E0,-9.473299196E-1,-3.286885394E0
1.795725792E0,1.045089006E0,-9.588059574E-1,-3.267364465E0
1.805696792E0,9.074526398E-1,-7.745230624E-1,-3.267915273E0
1.815668792E0,8.066141899E-1,-5.741992083E-1,-3.236014034E0
1.825639792E0,7.736958276E-1,-4.286181566E-1,-3.215169294E0
1.835611792E0,7.443607852E-1,-3.637187406E-1,-3.291491246E0
1.845582792E0,6.438388158E-1,-3.868953493E-1,-3.413082926E0
1.855554792E0,4.445379321E-1,-3.520099837E-1,-3.531500153E0
1.865525792E0,1.886269012E-1,-2.170240867E-1,-3.614218959E0
1.875496792E0,-2.075330324E-2,7.180965543E-3,-3.665393790E0
1.885468792E0,-9.036780428E-2,2.048370275E-1,-3.687015624E0
1.895439792E0,-1.690525062E-1,4.129075652E-1,-3.434757970E0
1.905411792E0,-2.635696409E-1,6.342536214E-1,-3.079841920E0
1.915382792E0,-3.852912023E-1,7.441312820E-1,-2.677697909E0
1.925354792E0,-5.028127451E-1,8.276944256E-1,-2.191342884E0
1.935325792E0,-5.420351003E-1,9.337810439E-1,-1.767900975E0
1.945296792E0,-5.059331118E-1,1.073143874E0,-1.417023597E0
1.955268792E0,-4.808919722E-1,1.259795769E0,-1.202410902E0
1.965239792E0,-4.763307054E-1,1.493294093E0,-1.034857183E0
1.975211792E0,-3.962950408E-1,1.796787974E0,-8.931686229E-1
1.985182792E0,-3.148675928E-1,2.122776679E0,-8.349198300E-1
1.995154792E0,-2.624202976E-1,2.392002076E0,-9.394581056E-1
2.005125792E0,-2.547299665E-1,2.490783475E0,-1.149268482E0
2.015097792E0,-3.073526416E-1,2.485472741E0,-1.191079583E0
2.025068792E0,-4.801682696E-1,2.395066017E0,-1.064694355E0
2.035039792E0,-6.621420626E-1,2.264510263E0,-8.167753351E-1
2.045011792E0,-7.127733222E-1,2.127928661E0,-5.427344638E-1
2.054982792E0,-7.563065006E-1,2.000358202E0,-2.188261986E-1
2.064954792E0,-7.850331402E-1,1.919966296E0,1.354232687E-1
2.074925792E0,-8.166847032E-1,1.867614713E0,5.201952016E-1
2.084897792E0,-8.238448381E-1,1.840259976E0,1.036880320E0
2.094868792E0,-8.108488896E-1,1.788555679E0,1.644133546E0
2.104839792E0,-9.650181124E-1,1.645729836E0,2.159498363E0
2.114811792E0,-1.322902721E0,1.412757468E0,2.491151265E0
2.124782792E0,-1.548238478E0,1.186769015E0,2.559516910E0
2.134754792E0,-1.557907872E0,1.048424478E0,2.383669501E0
2.144725792E0,-1.449983036E0,1.076620921E0,2.192080802E0
2.154697792E0,-1.320952674E0,1.310983464E0,2.117552192E0
2.164668792E0,-1.233554927E0,1.638045717E0,2.165013456E0
2.174641792E0,-1.127946245E0,1.878569471E0,2.400355116E0
2.184612792E0,-9.554490709E-1,1.941867335E0,2.797628396E0
2.194583792E0,-7.475409396E-1,1.757409023E0,3.381969892E0
2.204555792E0,-5.976600648E-1,1.245863900E0,4.244430692E0
2.214526792E0,-6.902102327E-1,4.884781498E-1,5.250993783E0
2.224498792E0,-8.690091703E-1,-3.215781498E-1,6.058688977E0
2.234469792E0,-1.022885448E0,-1.066873905E0,6.418079317E0
2.244441792E0,-1.142405751E0,-1.497439477E0,6.231827372E0
2.254412792E0,-1.042977650E0,-1.667664496E0,5.390611845E0
2.264383792E0,-9.323854597E-1,-1.551146737E0,4.260932704E0
2.274355792E0,-9.047414321E-1,-1.098012375E0,3.143166681E0
2.284326792E0,-9.346687974E-1,-6.066109094E-1,2.213327245E0
2.294298792E0,-8.540808633E-1,-2.850391915E-1,1.691550372E0
2.304269792E0,-5.038946262E-1,-2.701334694E-1,1.511442681E0
2.314241792E0,-6.741580177E-2,-5.586049765E-1,1.527258815E0
2.324212792E0,1.666459385E-1,-9.041049626E-1,1.586559522E0
2.334184792E0,1.137841123E-1,-1.275107872E0,1.620838823E0
2.344155792E0,-4.452588938E-2,-1.609965341E0,1.537594938E0
2.354126792E0,-1.119200565E-1,-1.907086342E0,1.153683130E0
2.364098792E0,-1.014914742E-1,-2.118531600E0,5.255793178E-1
2.374069792E0,-1.270358764E-1,-2.128982913E0,-2.417934769E-1
2.384041792E0,-1.649300730E-1,-1.905240668E0,-9.153623146E-1
2.394012792E0,-8.873917200E-2,-1.538037864E0,-1.409853741E0
2.403984792E0,9.770510975E-2,-1.163871611E0,-1.738542105E0
2.413955792E0,2.277042454E-1,-9.506841749E-1,-1.969933385E0
2.423926792E0,1.816207308E-1,-9.122890180E-1,-2.076767862E0
2.433898792E0,1.337319981E-1,-1.010674269E0,-2.157121469E0
2.443869792E0,1.512145516E-1,-1.166425967E0,-2.316737593E0
2.453841792E0,2.182237892E-1,-1.337332479E0,-2.563449748E0
2.463812792E0,1.997910266E-1,-1.451958956E0,-2.926689894E0
2.473784792E0,1.296688776E-1,-1.521991935E0,-3.280357563E0
2.483755792E0,4.019522220E-2,-1.518893496E0,-3.581071093E0
2.493727792E0,-2.509171799E-2,-1.423568970E0,-3.595661066E0
2.503698792E0,6.670211256E-3,-1.278482300E0,-3.364915318E0
2.513669792E0,1.143716113E-1,-1.123278193E0,-3.044038249E0
2.523641792E0,2.768041557E-1,-9.398583475E-1,-2.721054429E0
2.533612792E0,3.574552763E-1,-8.053893444E-1,-2.374855993E0
2.543584792E0,3.434234937E-1,-7.265203455E-1,-1.997945641E0
2.553555792E0,3.132760537E-1,-6.405700761E-1,-1.835797089E0
2.563527792E0,3.458236295E-1,-4.307825035E-1,-1.860681084E0
2.573498792E0,4.454661776E-1,-1.286697346E-1,-1.818958862E0
2.583469792E0,4.471487139E-1,-2.850020617E-2,-1.746914148E0
2.593441792E0,3.462661175E-1,-1.557414660E-1,-1.667993694E0
2.603412792E0,2.391170236E-1,-3.262284404E-1,-1.548365509E0
2.613384792E0,5.381605525E-2,-4.269405904E-1,-1.278622926E0
2.623355792E0,-5.995279944E-2,-4.172602326E-1,-8.511288965E-1
2.633327792E0,2.070926640E-2,-3.684359819E-1,-3.302267665E-1
2.643298792E0,2.214534439E-1,-2.659760991E-1,1.299724942E-1
2.653270792E0,4.180399222E-1,-1.192235577E-1,3.780318475E-1
2.663241792E0,6.726316021E-1,9.407439083E-2,4.647390389E-1
2.673212792E0,9.206515597E-1,2.683310652E-1,4.404192996E-1
2.683184792E0,9.371492594E-1,3.503528827E-1,2.515273368E-1
2.693155792E0,9.646897913E-1,4.333798367E-1,8.948578835E-2
2.703127792E0,9.690748376E-1,5.884731388E-1,2.960392660E-1
2.713098792E0,1.064455789E0,6.545133466E-1,7.228737295E-1
2.723070792E0,1.164675676E0,5.609485406E-1,1.252529726E0
2.733041792E0,1.248768651E0,4.667475575E-1,1.886338667E0
2.743012792E0,1.307997583E0,4.085370639E-1,2.525098445E0
2.752984792E0,1.289236938E0,4.362844411E-1,3.178707227E0
2.762955792E0,1.262464584E0,4.626466128E-1,3.744788454E0
2.772927792E0,1.244990034E0,3.464177066E-1,4.293820953E0
2.782898792E0,1.261269852E0,9.726375461E-2,4.864290515E0
2.792870792E0,1.455924099E0,-1.679706252E-1,5.283796663E0
2.802841792E0,1.647333288E0,-2.008571202E-1,5.609930379E0
2.812813792E0,1.761899977E0,3.192258149E-2,5.919287263E0
2.822784792E0,1.836747554E0,1.668976611E-1,5.933467931E0
2.832755792E0,1.888830750E0,2.122685462E-2,5.414002461E0
2.842727792E0,1.805735968E0,-3.368007910E-1,4.364245988E0
2.852698792E0,1.515819907E0,-6.733445969E-1,2.954233203E0
2.862670792E0,1.297678125E0,-8.508803898E-1,1.400512229E0
2.872641792E0,1.186614868E0,-9.054156160E-1,7.645819187E-2
2.882613792E0,1.156019312E0,-8.614045009E-1,-9.055769992E-1
2.892584792E0,1.165111075E0,-7.539882258E-1,-1.548568992E0
2.902555792E0,1.041398025E0,-6.988267627E-1,-1.877766649E0
2.912527792E0,8.553502938E-1,-7.451486975E-1,-1.968187991E0
2.922498792E0,6.260884964E-1,-8.794957861E-1,-1.937438069E0
2.932470792E0,4.083919068E-1,-9.926025715E-1,-1.867732242E0
2.942441792E0,3.549065481E-1,-8.223436385E-1,-1.756519954E0
2.952413792E0,4.850032226E-1,-4.070191267E-1,-1.658642827E0
2.962384792E0,7.403631900E-1,1.347321278E-1,-1.666078731E0
2.972356792E0,9.959614315E-1,5.331190100E-1,-1.883271217E0
2.982327792E0,1.162754354E0,8.032811308E-1,-2.170805708E0
2.992298792E0,1.117109381E0,8.845346242E-1,-2.418994870E0
3.002270792E0,8.738256680E-1,7.861373869E-1,-2.542338960E0
3.012241792E0,5.837072195E-1,5.183787641E-1,-2.586032279E0
3.022213792E0,3.343272726E-1,7.243881583E-2,-2.548248156E0
3.032184792E0,1.558380912E-1,-4.081844768E-1,-2.390486185E0
3.042156792E0,6.589388117E-2,-7.158503464E-1,-2.086451436E0
3.052127792E0,9.654206201E-2,-9.347391102E-1,-1.873959526E0
3.062099792E0,2.282027936E-1,-1.090651900E0,-1.827440833E0
3.072070792E0,3.969079021E-1,-1.133681852E0,-1.948730212E0
3.082041792E0,5.569778426E-1,-1.112685670E0,-2.196249282E0
3.092013792E0,6.860552743E-1,-1.143333558E0,-2.584350035E0
3.101984792E0,7.518614472E-1,-1.194302568E0,-3.101667822E0
3.111956792E0,7.348812061E-1,-1.314393852E0,-3.634612877E0
3.121927792E0,6.964409526E-1,-1.351009701E0,-4.036970311E0
3.131899792E0,5.653009155E-1,-1.434390704E0,-4.318421359E0
3.141870792E0,3.438810383E-1,-1.584546325E0,-4.455779471E0
3.151841792E0,1.210678426E-1,-1.700476731E0,-4.412914703E0
3.161813792E0,-6.812188961E-2,-1.682788027E0,-4.178640161E0
3.171784792E0,-1.909104947E-1,-1.524477879E0,-3.837907702E0
3.181756917E0,-2.336344549E-1,-1.239468800E0,-3.522089059E0
3.191727917E0,-1.382806202E-1,-8.286826050E-1,-3.318434047E0
3.201699917E0,-8.828290645E-2,-4.182712162E-1,-3.198777210E0
3.211670917E0,-1.142575905E-1,2.988219559E-2,-3.124776603E0
3.221642917E0,-2.036540627E-1,4.974246821E-1,-3.071514316E0
3.231613917E0,-3.403393432E-1,9.317573225E-1,-2.943717570E0
3.241584917E0,-4.951872085E-1,1.298698464E0,-2.651598278E0
3.251556917E0,-5.237851728E-1,1.613167569E0,-2.196914111E0
3.261527917E0,-5.176234500E-1,1.826708469E0,-1.584890141E0
3.271499917E0,-5.946175757E-1,2.012663375E0,-8.303367823E-1
3.281470917E0,-7.092217965E-1,2.081496798E0,-1.326177746E-1
3.291442917E0,-8.191054505E-1,2.043606548E0,5.073482841E-1
3.301413917E0,-8.636754864E-1,2.116706392E0,1.102722307E0
3.311385917E0,-9.684173913E-1,2.363093149E0,1.607789592E0
3.321356917E0,-1.235075641E0,2.584224320E0,1.958297426E0
3.331327917E0,-1.497627026E0,2.710308708E0,2.221244960E0
